# scan = 17
# date = 9/5/2017
# time = 1:57:11 PM
# proposal = 19739
# experiment = Separation of phonon and magnetic scattering near the Majorana mode in Î±-RuCl3: feasibility study
# experiment_number = 600
# command = scan s1 145 140 0.5
# builtin_command = scan s1 145 140 0.5
# users = Paula Kelley
# local_contact = 
# scan_title = Co-Alignment on post RT 3 0 0 postion
# monochromator = PG002
# analyzer = Pg002
# sense = -+-
# collimation = 48-40-40-120
# samplename = RuCl3
# sampletype = crystal
# samplemosaic = 30.000000
# latticeconstants = 5.975000,5.975000,17.000000,90.000000,90.000000,120.000000
# ubmatrix = -0.193255,-0.096628,0.000000,-0.000000,0.000000,-0.058824,0.000000,-0.167364,0.000000
# mode = 0
# plane_normal = 0.000000,0.000000,1.000000
# ubconf = UB05Sep2017_10850PM.ini
# preset_type = normal 
# preset_channel = time
# preset_value = 1.000000
# def_x = s1
# def_y = detector
# col_headers = 
#   Pt.         s1       time   detector    monitor        mcu focal_length         m1         m2   mcrystal       marc     mtrans     mfocus        bab        bal        bar        bat        bbb        bbl        bbr        bbt         s2        sgl        sgu        stl        stu         a1         a2          q          h          k          l         ei         ef          e   cold_tip    tsample       temp
      1   145.0004      1.000   1183.000  13275.000      5.055    66.7975   -22.2454   -41.1655   119.9771     2.6000    -2.0000   -34.2897    39.0000    30.0000    30.0000    39.0000    10.0000    30.0000    30.0000    30.0000    86.2904     0.0000    -1.9995    -0.0010     0.0000   159.4104   -41.1799     3.6423    -0.5566    -0.1183    -9.6390    14.7005    14.6907     0.0098     1.0000     1.0000     1.000
      2   144.5001      1.000   2235.000  13382.000      5.096    66.7975   -22.2454   -41.1655   119.9771     2.6000    -2.0000   -34.2897    39.0000    30.0000    30.0000    39.0000    10.0000    30.0000    30.0000    30.0000    86.2904     0.0000    -1.9995    -0.0010     0.0000   159.4104   -41.1799     3.6423    -0.5308    -0.1185    -9.6563    14.7005    14.6907     0.0098     1.0000     1.0000     1.000
      3   144.0000      1.000   4172.000  13263.000      5.051    66.7975   -22.2454   -41.1655   119.9771     2.6000    -2.0000   -34.2897    39.0000    30.0000    30.0000    39.0000    10.0000    30.0000    30.0000    30.0000    86.2904     0.0000    -1.9995    -0.0010     0.0000   159.4104   -41.1799     3.6423    -0.5050    -0.1187    -9.6729    14.7005    14.6907     0.0098     1.0000     1.0000     1.000
      4   143.5000      1.000   1721.000  13641.000      5.195    66.7975   -22.2454   -41.1655   119.9771     2.6000    -2.0000   -34.2897    39.0000    30.0000    30.0000    39.0000    10.0000    30.0000    30.0000    30.0000    86.2904     0.0000    -1.9995    -0.0010     0.0000   159.4104   -41.1799     3.6423    -0.4792    -0.1189    -9.6887    14.7005    14.6907     0.0098     1.0000     1.0000     1.000
      5   143.0000      1.000   1698.000  13526.000      5.151    66.7975   -22.2454   -41.1655   119.9771     2.6000    -2.0000   -34.2897    39.0000    30.0000    30.0000    39.0000    10.0000    30.0000    30.0000    30.0000    86.2904     0.0000    -1.9995    -0.0010     0.0000   159.4104   -41.1799     3.6423    -0.4533    -0.1191    -9.7037    14.7005    14.6907     0.0098     1.0000     1.0000     1.000
      6   142.5000      1.000   2059.000  13546.000      5.158    66.7975   -22.2454   -41.1655   119.9771     2.6000    -2.0000   -34.2897    39.0000    30.0000    30.0000    39.0000    10.0000    30.0000    30.0000    30.0000    86.2904     0.0000    -1.9995    -0.0010     0.0000   159.4104   -41.1799     3.6423    -0.4274    -0.1192    -9.7181    14.7005    14.6907     0.0098     1.0000     1.0000     1.000
      7   142.0000      1.000   2311.000  13401.000      5.103    66.7975   -22.2454   -41.1655   119.9771     2.6000    -2.0000   -34.2897    39.0000    30.0000    30.0000    39.0000    10.0000    30.0000    30.0000    30.0000    86.2904     0.0000    -1.9995    -0.0010     0.0000   159.4104   -41.1799     3.6423    -0.4015    -0.1194    -9.7316    14.7005    14.6907     0.0098     1.0000     1.0000     1.000
      8   141.5000      1.000   2599.000  13429.000      5.114    66.7975   -22.2454   -41.1655   119.9771     2.6000    -2.0000   -34.2897    39.0000    30.0000    30.0000    39.0000    10.0000    30.0000    30.0000    30.0000    86.2904     0.0000    -1.9995    -0.0010     0.0000   159.4104   -41.1799     3.6423    -0.3755    -0.1196    -9.7445    14.7005    14.6907     0.0098     1.0000     1.0000     1.000
      9   141.0000      1.000   2696.000  13511.000      5.145    66.7975   -22.2454   -41.1655   119.9771     2.6000    -2.0000   -34.2897    39.0000    30.0000    30.0000    39.0000    10.0000    30.0000    30.0000    30.0000    86.2904     0.0000    -1.9995    -0.0010     0.0000   159.4104   -41.1799     3.6423    -0.3495    -0.1197    -9.7566    14.7005    14.6907     0.0098     1.0000     1.0000     1.000
     10   140.5000      1.000   2852.000  13393.000      5.100    66.7975   -22.2454   -41.1655   119.9771     2.6000    -2.0000   -34.2897    39.0000    30.0000    30.0000    39.0000    10.0000    30.0000    30.0000    30.0000    86.2904     0.0000    -1.9995    -0.0010     0.0000   159.4104   -41.1799     3.6423    -0.3235    -0.1199    -9.7679    14.7005    14.6907     0.0098     1.0000     1.0000     1.000
     11   140.0000      1.000   2838.000  13487.000      5.136    66.7975   -22.2454   -41.1655   119.9771     2.6000    -2.0000   -34.2897    39.0000    30.0000    30.0000    39.0000    10.0000    30.0000    30.0000    30.0000    86.2904     0.0000    -1.9995    -0.0010     0.0000   159.4104   -41.1799     3.6423    -0.2975    -0.1200    -9.7786    14.7005    14.6907     0.0098     1.0000     1.0000     1.000
# Sum of Counts = 26364
# Center of Mass = 142.335332+/-1.239754
# Full Width Half-Maximum = 3.153459+/-0.792799
# 1:57:53 PM  9/5/2017   scan completed.
