# scan = 70
# date = 9/5/2017
# time = 10:46:50 PM
# proposal = 19739
# experiment = Separation of phonon and magnetic scattering near the Majorana mode in Î±-RuCl3: feasibility study
# experiment_number = 600
# command = scan bal 30 0 2
# builtin_command = scan bal 30 0 2
# users = Paula Kelley
# local_contact = 
# scan_title = slit scans while cooling
# monochromator = PG002
# analyzer = Pg002
# sense = -+-
# collimation = 48-40-40-120
# samplename = RuCl3
# sampletype = crystal
# samplemosaic = 30.000000
# latticeconstants = 5.975000,5.975000,17.000000,90.000000,90.000000,120.000000
# ubmatrix = 0.007997,-0.001843,-0.058737,0.192379,0.110766,0.002248,0.016549,-0.158351,0.002256
# mode = 0
# plane_normal = 0.034900,-0.087094,0.995588
# ubconf = UB05Sep2017_95742PM.ini
# preset_type = normal 
# preset_channel = time
# preset_value = 1.000000
# def_x = bal
# def_y = detector
# col_headers = 
#   Pt.        bal       time   detector    monitor        mcu focal_length         m1         m2   mcrystal       marc     mtrans     mfocus        bab        bar        bat        bbb        bbl        bbr        bbt         s1         s2        sgl        sgu        stl        stu         a1         a2          q          h          k          l         ei         ef          e   cold_tip    tsample       temp
      1    30.0000      1.000 115975.000  13900.000      5.293    66.7975   -22.2454   -41.1659   119.9771     2.6000    -2.0000   -34.2897    25.0000    30.0000    25.0000    39.0000    30.0000    30.0000    39.0000    26.9740    49.2005    -2.0000    -4.9995    -0.0010    -0.0010   159.4104   -41.1799     2.2172    -0.0006     0.0000     5.9989    14.7002    14.6907     0.0095    86.6170   123.1190     1.000
      2    28.0000      1.000 116609.000  14096.000      5.368    66.7975   -22.2454   -41.1659   119.9771     2.6000    -2.0000   -34.2897    25.0000    30.0000    25.0000    39.0000    30.0000    30.0000    39.0000    26.9740    49.2005    -2.0000    -4.9995    -0.0010    -0.0010   159.4104   -41.1799     2.2172    -0.0006     0.0000     5.9989    14.7002    14.6907     0.0095    86.3780   122.8620     1.000
      3    26.0000      1.000 116447.000  13917.000      5.300    66.7975   -22.2454   -41.1659   119.9771     2.6000    -2.0000   -34.2897    25.0000    30.0000    25.0000    39.0000    30.0000    30.0000    39.0000    26.9740    49.2005    -2.0000    -4.9995    -0.0010    -0.0010   159.4104   -41.1799     2.2172    -0.0006     0.0000     5.9989    14.7002    14.6907     0.0095    86.1470   122.5900     1.000
      4    24.0000      1.000 116965.000  14159.000      5.392    66.7975   -22.2454   -41.1659   119.9771     2.6000    -2.0000   -34.2897    25.0000    30.0000    25.0000    39.0000    30.0000    30.0000    39.0000    26.9740    49.2005    -2.0000    -4.9995    -0.0010    -0.0010   159.4104   -41.1799     2.2172    -0.0006     0.0000     5.9989    14.7002    14.6907     0.0095    85.9180   122.4040     1.000
      5    22.0000      1.000 116967.000  14181.000      5.400    66.7975   -22.2454   -41.1659   119.9771     2.6000    -2.0000   -34.2897    25.0000    30.0000    25.0000    39.0000    30.0000    30.0000    39.0000    26.9740    49.2005    -2.0000    -4.9995    -0.0010    -0.0010   159.4104   -41.1799     2.2172    -0.0006     0.0000     5.9989    14.7002    14.6907     0.0095    85.6890   122.1850     1.000
      6    20.0000      1.000 117239.000  14110.000      5.373    66.7975   -22.2454   -41.1659   119.9771     2.6000    -2.0000   -34.2897    25.0000    30.0000    25.0000    39.0000    30.0000    30.0000    39.0000    26.9740    49.2005    -2.0000    -4.9995    -0.0010    -0.0010   159.4104   -41.1799     2.2172    -0.0006     0.0000     5.9989    14.7002    14.6907     0.0095    85.4590   121.9650     1.000
      7    18.0000      1.000 117120.000  13949.000      5.312    66.7975   -22.2454   -41.1659   119.9771     2.6000    -2.0000   -34.2897    25.0000    30.0000    25.0000    39.0000    30.0000    30.0000    39.0000    26.9740    49.2005    -2.0000    -4.9995    -0.0010    -0.0010   159.4104   -41.1799     2.2172    -0.0006     0.0000     5.9989    14.7002    14.6907     0.0095    85.2280   121.7280     1.000
      8    16.0000      1.000 117619.000  14076.000      5.360    66.7975   -22.2454   -41.1659   119.9771     2.6000    -2.0000   -34.2897    25.0000    30.0000    25.0000    39.0000    30.0000    30.0000    39.0000    26.9740    49.2005    -2.0000    -4.9995    -0.0010    -0.0010   159.4104   -41.1799     2.2172    -0.0006     0.0000     5.9989    14.7002    14.6907     0.0095    84.9970   121.5090     1.000
      9    14.0000      1.000 117484.000  13946.000      5.311    66.7975   -22.2454   -41.1659   119.9771     2.6000    -2.0000   -34.2897    25.0000    30.0000    25.0000    39.0000    30.0000    30.0000    39.0000    26.9740    49.2005    -2.0000    -4.9995    -0.0010    -0.0010   159.4104   -41.1799     2.2172    -0.0006     0.0000     5.9989    14.7002    14.6907     0.0095    84.7630   121.2640     1.000
     10    12.0000      1.000 117444.000  14039.000      5.346    66.7975   -22.2454   -41.1659   119.9771     2.6000    -2.0000   -34.2897    25.0000    30.0000    25.0000    39.0000    30.0000    30.0000    39.0000    26.9740    49.2005    -2.0000    -4.9995    -0.0010    -0.0010   159.4104   -41.1799     2.2172    -0.0006     0.0000     5.9989    14.7002    14.6907     0.0095    84.5310   121.0550     1.000
     11    10.0000      1.000 117656.000  13986.000      5.326    66.7975   -22.2454   -41.1659   119.9771     2.6000    -2.0000   -34.2897    25.0000    30.0000    25.0000    39.0000    30.0000    30.0000    39.0000    26.9740    49.2005    -2.0000    -4.9995    -0.0010    -0.0010   159.4104   -41.1799     2.2172    -0.0006     0.0000     5.9989    14.7002    14.6907     0.0095    84.2980   120.7950     1.000
     12     8.0000      1.000 117394.000  14198.000      5.407    66.7975   -22.2454   -41.1659   119.9771     2.6000    -2.0000   -34.2897    25.0000    30.0000    25.0000    39.0000    30.0000    30.0000    39.0000    26.9740    49.2005    -2.0000    -4.9995    -0.0010    -0.0010   159.4104   -41.1799     2.2172    -0.0006     0.0000     5.9989    14.7002    14.6907     0.0095    84.0660   120.5390     1.000
     13     6.0000      1.000 114156.000  14257.000      5.429    66.7975   -22.2454   -41.1659   119.9771     2.6000    -2.0000   -34.2897    25.0000    30.0000    25.0000    39.0000    30.0000    30.0000    39.0000    26.9740    49.2005    -2.0000    -4.9995    -0.0010    -0.0010   159.4104   -41.1799     2.2172    -0.0006     0.0000     5.9989    14.7002    14.6907     0.0095    83.8420   120.3300     1.000
     14     4.0000      1.000 102458.000  13983.000      5.325    66.7975   -22.2454   -41.1659   119.9771     2.6000    -2.0000   -34.2897    25.0000    30.0000    25.0000    39.0000    30.0000    30.0000    39.0000    26.9740    49.2005    -2.0000    -4.9995    -0.0010    -0.0010   159.4104   -41.1799     2.2172    -0.0006     0.0000     5.9989    14.7002    14.6907     0.0095    83.6110   119.9510     1.000
     15     2.0000      1.000  75139.000  13900.000      5.293    66.7975   -22.2454   -41.1659   119.9771     2.6000    -2.0000   -34.2897    25.0000    30.0000    25.0000    39.0000    30.0000    30.0000    39.0000    26.9740    49.2005    -2.0000    -4.9995    -0.0010    -0.0010   159.4104   -41.1799     2.2172    -0.0006     0.0000     5.9989    14.7002    14.6907     0.0095    83.3790   119.7220     1.000
     16     0.0000      1.000  34551.000  14065.000      5.356    66.7975   -22.2454   -41.1659   119.9771     2.6000    -2.0000   -34.2897    25.0000    30.0000    25.0000    39.0000    30.0000    30.0000    39.0000    26.9740    49.2005    -2.0000    -4.9995    -0.0010    -0.0010   159.4104   -41.1799     2.2172    -0.0006     0.0000     5.9989    14.7002    14.6907     0.0095    83.1520   119.4940     1.000
# Sum of Counts = 1731223
# Center of Mass = 16.116967+/-0.018524
# Full Width Half-Maximum = 17.265908+/-0.014330
# 10:47:47 PM  9/5/2017   scan completed.
